# P(mbar),T(K)
100.000,83.400
128.068,85.006
164.015,87.168
210.051,90.433
269.009,93.207
344.515,97.283
441.215,103.509
565.057,111.720
723.659,121.255
926.778,131.490
1186.908,142.323
1520.054,155.083
1946.707,169.163
2493.115,182.330
3192.891,196.478
4089.082,212.123
5236.819,228.732
6706.706,246.426
8589.165,265.285
11000.000,285.407
